0 1
0 2
0 3
1 0
1 2
1 3
1 4
2 0
2 1
2 3
2 4
2 5
3 0
3 1
3 2
3 4
3 5
3 6
4 1
4 2
4 3
4 5
4 6
4 7
5 2
5 3
5 4
5 6
5 7
5 8
6 3
6 4
6 5
6 7
6 8
6 9
7 4
7 5
7 6
7 8
7 9
7 10
8 5
8 6
8 7
8 9
8 10
8 11
9 6
9 7
9 8
9 10
9 11
9 12
10 7
10 8
10 9
10 11
10 12
10 13
11 8
11 9
11 10
11 12
11 13
11 14
11 16
12 9
12 10
12 11
12 13
12 14
12 15
12 16
12 17
13 10
13 11
13 12
13 14
13 15
13 16
13 17
13 18
13 19
14 11
14 12
14 13
14 15
14 16
14 17
14 18
14 19
14 20
15 12
15 13
15 14
15 16
15 17
15 18
15 19
15 20
15 21
16 11
16 12
16 13
16 14
16 15
16 17
16 18
16 19
16 20
16 21
16 22
17 12
17 13
17 14
17 15
17 16
17 18
17 19
17 20
17 21
17 22
17 23
18 13
18 14
18 15
18 16
18 17
18 19
18 20
18 21
18 22
18 23
18 24
19 13
19 14
19 15
19 16
19 17
19 18
19 20
19 21
19 22
19 23
19 24
19 25
20 14
20 15
20 16
20 17
20 18
20 19
20 21
20 22
20 23
20 24
20 25
20 26
21 15
21 16
21 17
21 18
21 19
21 20
21 22
21 23
21 24
21 25
21 26
21 27
22 16
22 17
22 18
22 19
22 20
22 21
22 23
22 24
22 25
22 26
22 27
22 28
23 17
23 18
23 19
23 20
23 21
23 22
23 24
23 25
23 26
23 27
23 28
23 29
24 18
24 19
24 20
24 21
24 22
24 23
24 25
24 26
24 27
24 28
24 29
24 30
25 19
25 20
25 21
25 22
25 23
25 24
25 26
25 27
25 28
25 29
25 30
25 31
26 20
26 21
26 22
26 23
26 24
26 25
26 27
26 28
26 29
26 30
26 31
26 32
27 21
27 22
27 23
27 24
27 25
27 26
27 28
27 29
27 30
27 31
27 32
27 33
28 22
28 23
28 24
28 25
28 26
28 27
28 29
28 30
28 31
28 32
28 33
28 34
29 23
29 24
29 25
29 26
29 27
29 28
29 30
29 31
29 32
29 33
29 34
29 35
30 24
30 25
30 26
30 27
30 28
30 29
30 31
30 32
30 33
30 34
30 35
30 36
31 25
31 26
31 27
31 28
31 29
31 30
31 32
31 33
31 34
31 35
31 36
31 37
32 26
32 27
32 28
32 29
32 30
32 31
32 33
32 34
32 35
32 36
32 37
32 38
33 27
33 28
33 29
33 30
33 31
33 32
33 34
33 35
33 36
33 37
33 38
34 28
34 29
34 30
34 31
34 32
34 33
34 35
34 36
34 37
34 38
34 39
35 29
35 30
35 31
35 32
35 33
35 34
35 36
35 37
35 38
35 39
35 40
35 41
36 30
36 31
36 32
36 33
36 34
36 35
36 37
36 38
36 39
36 40
37 31
37 32
37 33
37 34
37 35
37 36
37 38
37 39
37 40
38 32
38 33
38 34
38 35
38 36
38 37
38 39
38 40
38 41
39 34
39 35
39 36
39 37
39 38
39 40
39 41
39 42
40 35
40 36
40 37
40 38
40 39
40 41
40 42
40 43
41 35
41 38
41 39
41 40
41 42
41 43
41 44
42 39
42 40
42 41
42 43
42 44
42 45
43 40
43 41
43 42
43 44
43 45
43 46
44 41
44 42
44 43
44 45
44 46
44 47
45 42
45 43
45 44
45 46
45 47
45 48
46 43
46 44
46 45
46 47
46 48
46 49
47 44
47 45
47 46
47 48
47 49
47 50
48 45
48 46
48 47
48 49
48 50
48 51
49 46
49 47
49 48
49 50
49 51
49 52
49 53
49 55
49 56
49 57
49 59
49 60
50 47
50 48
50 49
50 51
50 52
50 53
50 54
50 56
51 48
51 49
51 50
51 52
51 53
51 54
51 55
51 56
51 57
52 49
52 50
52 51
52 53
52 54
52 55
52 56
53 49
53 50
53 51
53 52
53 54
53 55
53 56
53 57
53 59
54 50
54 51
54 52
54 53
54 55
54 56
54 57
54 58
54 59
55 49
55 51
55 52
55 53
55 54
55 56
55 57
55 58
55 59
55 60
56 49
56 50
56 51
56 52
56 53
56 54
56 55
56 57
56 58
56 59
56 60
56 61
56 62
57 49
57 51
57 53
57 54
57 55
57 56
57 58
57 59
57 60
57 61
57 62
57 63
58 54
58 55
58 56
58 57
58 59
58 60
58 61
58 62
58 63
58 64
59 49
59 53
59 54
59 55
59 56
59 57
59 58
59 60
59 61
59 62
59 63
59 64
59 65
60 49
60 55
60 56
60 57
60 58
60 59
60 61
60 62
60 63
60 64
60 65
60 66
61 56
61 57
61 58
61 59
61 60
61 62
61 63
61 64
61 65
61 66
61 67
62 56
62 57
62 58
62 59
62 60
62 61
62 63
62 64
62 65
62 66
62 67
62 68
63 57
63 58
63 59
63 60
63 61
63 62
63 64
63 65
63 66
63 67
63 68
63 69
64 58
64 59
64 60
64 61
64 62
64 63
64 65
64 66
64 67
64 68
64 69
64 70
65 59
65 60
65 61
65 62
65 63
65 64
65 66
65 67
65 68
65 69
65 70
65 71
66 60
66 61
66 62
66 63
66 64
66 65
66 67
66 68
66 69
66 70
66 71
66 72
67 61
67 62
67 63
67 64
67 65
67 66
67 68
67 69
67 70
67 71
67 72
67 73
68 62
68 63
68 64
68 65
68 66
68 67
68 69
68 70
68 71
68 72
68 73
68 74
69 63
69 64
69 65
69 66
69 67
69 68
69 70
69 71
69 72
69 73
69 74
69 75
70 64
70 65
70 66
70 67
70 68
70 69
70 71
70 72
70 73
70 74
70 75
70 76
71 65
71 66
71 67
71 68
71 69
71 70
71 72
71 73
71 74
71 75
71 76
71 77
72 66
72 67
72 68
72 69
72 70
72 71
72 73
72 74
72 75
72 76
72 77
72 78
73 67
73 68
73 69
73 70
73 71
73 72
73 74
73 75
73 76
73 77
73 78
73 79
74 68
74 69
74 70
74 71
74 72
74 73
74 75
74 76
74 77
74 78
74 79
74 80
75 69
75 70
75 71
75 72
75 73
75 74
75 76
75 77
75 78
75 79
75 80
75 81
76 70
76 71
76 72
76 73
76 74
76 75
76 77
76 78
76 79
76 80
76 81
76 82
77 71
77 72
77 73
77 74
77 75
77 76
77 78
77 79
77 80
77 81
77 82
77 83
78 72
78 73
78 74
78 75
78 76
78 77
78 79
78 80
78 81
78 82
78 83
78 84
79 73
79 74
79 75
79 76
79 77
79 78
79 80
79 81
79 82
79 83
79 84
79 85
80 74
80 75
80 76
80 77
80 78
80 79
80 81
80 82
80 83
80 84
80 85
80 86
81 75
81 76
81 77
81 78
81 79
81 80
81 82
81 83
81 84
81 85
81 86
81 87
82 76
82 77
82 78
82 79
82 80
82 81
82 83
82 84
82 85
82 86
82 87
82 88
83 77
83 78
83 79
83 80
83 81
83 82
83 84
83 85
83 86
83 87
83 88
83 89
84 78
84 79
84 80
84 81
84 82
84 83
84 85
84 86
84 87
84 88
84 89
84 90
85 79
85 80
85 81
85 82
85 83
85 84
85 86
85 87
85 88
85 89
85 90
85 91
86 80
86 81
86 82
86 83
86 84
86 85
86 87
86 88
86 89
86 90
86 91
86 92
87 81
87 82
87 83
87 84
87 85
87 86
87 88
87 89
87 90
87 91
87 92
87 93
88 82
88 83
88 84
88 85
88 86
88 87
88 89
88 90
88 91
88 92
88 93
89 83
89 84
89 85
89 86
89 87
89 88
89 90
89 91
89 92
89 93
89 94
90 84
90 85
90 86
90 87
90 88
90 89
90 91
90 92
90 93
90 94
90 95
91 85
91 86
91 87
91 88
91 89
91 90
91 92
91 93
91 94
91 95
91 96
92 86
92 87
92 88
92 89
92 90
92 91
92 93
92 94
92 95
93 87
93 88
93 89
93 90
93 91
93 92
93 94
93 95
93 96
94 89
94 90
94 91
94 92
94 93
94 95
94 96
94 97
95 90
95 91
95 92
95 93
95 94
95 96
95 97
95 98
96 91
96 93
96 94
96 95
96 97
96 98
97 94
97 95
97 96
97 98
97 99
97 100
98 95
98 96
98 97
98 99
98 100
98 101
99 97
99 98
99 100
99 101
99 102
100 97
100 98
100 99
100 101
100 102
100 103
101 98
101 99
101 100
101 102
101 103
101 104
102 99
102 100
102 101
102 103
102 104
103 100
103 101
103 102
103 104
103 105
103 106
104 101
104 102
104 103
104 105
104 106
105 103
105 104
105 106
105 107
106 103
106 104
106 105
106 107
106 108
106 109
107 105
107 106
107 108
107 109
107 110
108 106
108 107
108 109
108 110
108 111
109 106
109 107
109 108
109 110
109 111
109 112
110 107
110 108
110 109
110 111
110 112
111 108
111 109
111 110
111 112
111 113
112 109
112 110
112 111
112 113
112 114
112 115
113 111
113 112
113 114
113 115
113 116
114 112
114 113
114 115
114 116
114 117
115 112
115 113
115 114
115 116
115 117
115 118
116 113
116 114
116 115
116 117
116 118
116 119
117 114
117 115
117 116
117 118
117 119
117 120
118 115
118 116
118 117
118 119
118 120
118 121
119 116
119 117
119 118
119 120
119 121
119 122
120 117
120 118
120 119
120 121
120 122
120 123
121 118
121 119
121 120
121 122
121 123
121 124
121 473
122 119
122 120
122 121
122 123
122 124
122 125
122 473
123 120
123 121
123 122
123 124
123 125
123 126
123 127
123 128
123 470
124 121
124 122
124 123
124 125
124 126
124 127
124 128
124 129
124 465
124 468
124 470
124 471
125 122
125 123
125 124
125 126
125 127
125 128
125 129
125 130
125 286
125 289
125 327
126 123
126 124
126 125
126 127
126 128
126 129
126 130
126 131
126 308
126 309
126 327
126 462
126 463
126 465
126 468
127 123
127 124
127 125
127 126
127 128
127 129
127 130
127 131
127 132
127 133
127 309
127 462
127 463
127 464
127 465
127 466
127 467
127 468
128 123
128 124
128 125
128 126
128 127
128 129
128 130
128 131
128 132
128 133
128 289
128 290
128 306
128 465
129 124
129 125
129 126
129 127
129 128
129 130
129 131
129 132
129 133
129 134
129 135
129 286
129 288
129 289
129 290
129 291
129 305
129 306
129 307
129 308
129 309
129 462
129 463
129 465
130 125
130 126
130 127
130 128
130 129
130 131
130 132
130 133
130 134
130 135
130 306
130 307
130 308
130 309
130 461
130 462
130 463
130 464
130 465
130 468
131 126
131 127
131 128
131 129
131 130
131 132
131 133
131 134
131 135
131 136
131 290
131 306
131 463
131 464
131 465
132 127
132 128
132 129
132 130
132 131
132 133
132 134
132 135
132 136
132 137
132 138
132 289
132 290
132 291
132 305
132 306
132 307
133 127
133 128
133 129
133 130
133 131
133 132
133 134
133 135
133 136
133 137
133 138
133 139
133 160
133 257
133 258
133 259
133 260
133 289
133 290
133 291
133 304
133 305
133 306
133 307
133 308
133 463
134 129
134 130
134 131
134 132
134 133
134 135
134 136
134 137
134 138
134 139
134 160
134 163
134 164
134 305
134 463
134 464
135 129
135 130
135 131
135 132
135 133
135 134
135 136
135 137
135 138
135 139
135 140
135 257
135 291
135 305
136 131
136 132
136 133
136 134
136 135
136 137
136 138
136 139
136 140
136 141
136 143
136 255
136 256
136 257
136 258
136 259
136 290
136 291
136 292
136 293
136 303
136 304
136 305
136 306
137 132
137 133
137 134
137 135
137 136
137 138
137 139
137 140
137 141
137 142
137 143
137 160
137 163
137 164
137 167
137 170
137 256
137 257
137 258
137 259
137 303
137 305
138 132
138 133
138 134
138 135
138 136
138 137
138 139
138 140
138 141
138 143
138 164
138 167
138 170
138 257
139 133
139 134
139 135
139 136
139 137
139 138
139 140
139 141
139 142
139 143
139 170
139 255
139 256
139 257
139 303
140 135
140 136
140 137
140 138
140 139
140 141
140 142
140 143
140 144
140 169
140 170
140 171
140 254
140 255
140 256
140 257
140 258
140 301
140 302
140 303
141 136
141 137
141 138
141 139
141 140
141 142
141 143
141 169
141 170
141 171
141 172
141 247
141 250
141 253
141 254
141 255
141 256
141 257
142 137
142 139
142 140
142 141
142 143
142 144
142 145
142 164
142 169
142 170
142 171
142 172
142 173
142 243
142 246
142 247
142 254
142 255
142 256
142 257
142 258
142 302
143 136
143 137
143 138
143 139
143 140
143 141
143 142
143 144
143 145
143 146
143 161
143 164
143 170
143 171
143 172
143 173
143 174
143 255
143 256
143 257
143 258
143 259
143 302
143 303
144 140
144 142
144 143
144 145
144 146
144 147
144 171
144 172
144 173
144 174
144 175
144 199
144 200
144 201
144 239
144 256
144 257
144 258
144 259
144 260
144 266
144 302
144 303
145 142
145 143
145 144
145 146
145 147
145 155
145 156
145 157
145 160
145 161
145 172
145 173
145 174
145 175
145 176
145 200
145 257
145 258
145 259
145 260
145 261
145 264
145 266
146 143
146 144
146 145
146 147
146 148
146 149
146 152
146 155
146 156
146 173
146 174
146 175
146 176
146 177
146 200
146 201
146 203
146 258
146 259
146 260
146 261
146 262
146 263
146 264
146 265
146 266
146 269
147 144
147 145
147 146
147 148
147 149
147 150
147 151
147 152
147 153
147 154
147 155
147 156
147 157
147 174
147 175
147 176
147 177
147 178
147 179
147 200
147 202
147 203
147 259
147 260
147 261
147 263
147 264
147 265
147 266
148 146
148 147
148 149
148 150
148 151
148 152
148 153
148 154
148 155
148 156
148 175
148 176
148 177
148 178
148 179
148 181
148 182
148 203
148 260
148 261
148 262
148 263
148 264
148 265
148 396
148 401
149 146
149 147
149 148
149 150
149 151
149 152
149 153
149 155
149 175
149 176
149 177
149 178
149 179
149 180
149 181
149 182
149 183
149 186
149 187
149 190
149 191
149 202
149 203
149 204
149 264
149 400
149 401
149 402
150 147
150 148
150 149
150 151
150 152
150 153
150 154
150 155
150 176
150 177
150 178
150 179
150 180
150 181
150 182
150 183
150 186
150 187
150 190
150 264
150 398
150 399
150 400
150 401
150 402
150 403
150 451
150 452
150 453
150 455
151 147
151 148
151 149
151 150
151 152
151 153
151 154
151 155
151 156
151 176
151 182
151 190
151 321
151 400
151 401
151 402
151 403
151 404
151 453
151 454
151 455
151 456
151 457
151 458
152 146
152 147
152 148
152 149
152 150
152 151
152 153
152 154
152 155
152 156
152 174
152 175
152 176
152 177
152 190
152 191
152 194
152 264
152 401
152 402
152 403
152 404
152 455
152 457
152 458
153 147
153 148
153 149
153 150
153 151
153 152
153 154
153 155
153 156
153 157
153 190
153 194
153 402
153 403
153 404
153 405
153 455
153 456
153 457
153 458
153 459
154 147
154 148
154 150
154 151
154 152
154 153
154 155
154 156
154 157
154 261
154 318
154 321
154 322
154 402
154 455
154 456
154 457
154 458
154 459
154 460
155 145
155 146
155 147
155 148
155 149
155 150
155 151
155 152
155 153
155 154
155 156
155 157
155 158
155 176
155 260
155 261
155 262
155 264
155 308
155 318
155 321
155 322
155 457
155 458
155 459
155 460
156 145
156 146
156 147
156 148
156 151
156 152
156 153
156 154
156 155
156 157
156 158
156 159
156 160
156 161
156 174
156 260
156 261
156 308
156 457
156 458
156 459
156 460
156 461
157 145
157 147
157 153
157 154
157 155
157 156
157 158
157 159
157 160
157 161
157 162
157 259
157 260
157 261
157 308
157 309
157 310
157 458
157 459
157 460
157 461
157 462
157 463
158 155
158 156
158 157
158 159
158 160
158 161
158 162
158 163
158 164
158 411
158 412
158 413
158 458
158 459
158 460
158 461
159 156
159 157
159 158
159 160
159 161
159 162
159 163
159 164
159 165
159 413
159 459
159 460
159 461
159 462
159 463
159 464
160 133
160 134
160 137
160 145
160 156
160 157
160 158
160 159
160 161
160 162
160 163
160 164
160 165
160 166
160 259
160 260
160 308
160 460
160 461
160 462
160 463
161 143
161 145
161 156
161 157
161 158
161 159
161 160
161 162
161 163
161 164
161 165
161 166
161 172
161 411
161 413
161 414
162 157
162 158
162 159
162 160
162 161
162 163
162 164
162 165
162 166
162 167
162 411
162 412
162 413
162 414
163 134
163 137
163 158
163 159
163 160
163 161
163 162
163 164
163 165
163 166
163 167
163 168
163 413
163 463
164 134
164 137
164 138
164 142
164 143
164 158
164 159
164 160
164 161
164 162
164 163
164 165
164 166
164 167
164 168
164 169
164 170
164 171
164 172
165 159
165 160
165 161
165 162
165 163
165 164
165 166
165 167
165 168
165 169
165 170
165 171
165 172
165 413
165 414
165 418
165 419
165 421
165 422
166 160
166 161
166 162
166 163
166 164
166 165
166 167
166 168
166 169
166 170
166 413
166 418
167 137
167 138
167 162
167 163
167 164
167 165
167 166
167 168
167 169
167 170
167 171
168 163
168 164
168 165
168 166
168 167
168 169
168 170
168 171
168 418
168 421
168 422
169 140
169 141
169 142
169 164
169 165
169 166
169 167
169 168
169 170
169 171
169 421
169 422
170 137
170 138
170 139
170 140
170 141
170 142
170 143
170 164
170 165
170 166
170 167
170 168
170 169
170 171
170 172
170 173
170 256
170 421
170 422
171 140
171 141
171 142
171 143
171 144
171 164
171 165
171 167
171 168
171 169
171 170
171 172
171 173
171 198
171 199
171 246
171 256
171 421
171 422
171 423
171 424
171 425
171 426
172 141
172 142
172 143
172 144
172 145
172 161
172 164
172 165
172 170
172 171
172 173
172 174
172 198
172 199
172 200
172 256
172 257
172 419
172 422
172 423
173 142
173 143
173 144
173 145
173 146
173 170
173 171
173 172
173 174
173 175
173 176
173 195
173 197
173 198
173 199
173 200
173 201
173 239
173 242
173 243
173 258
173 422
173 423
173 426
174 143
174 144
174 145
174 146
174 147
174 152
174 156
174 172
174 173
174 175
174 176
174 177
174 191
174 194
174 195
174 197
174 198
174 199
174 200
174 201
174 202
174 259
174 260
175 144
175 145
175 146
175 147
175 148
175 149
175 152
175 173
175 174
175 176
175 177
175 178
175 179
175 199
175 200
175 201
175 202
175 203
175 204
175 235
175 239
175 258
175 259
175 260
175 264
175 266
175 269
176 145
176 146
176 147
176 148
176 149
176 150
176 151
176 152
176 155
176 173
176 174
176 175
176 177
176 178
176 179
176 187
176 190
176 191
176 194
176 200
176 201
176 202
176 203
176 204
176 235
176 264
177 146
177 147
177 148
177 149
177 150
177 152
177 174
177 175
177 176
177 178
177 179
177 180
177 181
177 201
177 202
177 203
177 204
177 205
177 234
177 235
177 264
177 265
177 266
177 268
177 269
178 147
178 148
178 149
178 150
178 175
178 176
178 177
178 179
178 180
178 181
178 182
178 202
178 203
178 204
178 205
178 206
178 234
178 264
178 265
178 269
178 396
178 399
178 444
179 147
179 148
179 149
179 150
179 175
179 176
179 177
179 178
179 180
179 181
179 182
179 183
179 184
179 186
179 187
179 202
179 203
179 204
179 205
179 234
179 235
179 438
179 439
179 442
179 443
179 444
179 445
180 149
180 150
180 177
180 178
180 179
180 181
180 182
180 183
180 184
180 187
180 203
180 204
180 205
180 229
180 230
180 234
180 396
180 399
180 439
180 441
180 442
180 443
180 444
180 445
181 148
181 149
181 150
181 177
181 178
181 179
181 180
181 182
181 183
181 184
181 187
181 204
181 396
181 397
181 398
181 399
181 400
181 401
181 442
181 443
181 444
181 445
181 446
181 450
182 148
182 149
182 150
182 151
182 178
182 179
182 180
182 181
182 183
182 184
182 185
182 186
182 187
182 188
182 398
182 399
182 400
182 401
182 402
182 442
182 443
182 444
182 445
182 446
182 447
182 450
182 451
182 452
183 149
183 150
183 179
183 180
183 181
183 182
183 184
183 185
183 186
183 187
183 188
183 399
183 400
183 401
183 442
183 443
183 444
183 445
183 446
183 447
183 450
184 179
184 180
184 181
184 182
184 183
184 185
184 186
184 187
184 188
184 189
184 190
184 439
184 440
184 442
184 443
184 444
184 445
184 446
185 182
185 183
185 184
185 186
185 187
185 188
185 189
185 190
185 191
185 439
185 444
186 149
186 150
186 179
186 182
186 183
186 184
186 185
186 187
186 188
186 189
186 190
186 191
186 192
186 401
186 402
186 403
186 404
186 444
187 149
187 150
187 176
187 179
187 180
187 181
187 182
187 183
187 184
187 185
187 186
187 188
187 189
187 190
187 191
187 192
187 193
187 202
187 401
187 402
187 403
187 404
187 439
187 444
188 182
188 183
188 184
188 185
188 186
188 187
188 189
188 190
188 191
188 192
188 193
188 194
188 202
188 435
188 436
188 439
189 184
189 185
189 186
189 187
189 188
189 190
189 191
189 192
189 193
189 194
189 403
189 404
189 405
190 149
190 150
190 151
190 152
190 153
190 176
190 184
190 185
190 186
190 187
190 188
190 189
190 191
190 192
190 193
190 194
190 195
190 200
190 202
190 402
190 403
190 404
190 405
191 149
191 152
191 174
191 176
191 185
191 186
191 187
191 188
191 189
191 190
191 192
191 193
191 194
191 195
191 196
191 199
191 200
191 201
191 202
191 404
191 432
191 435
191 436
192 186
192 187
192 188
192 189
192 190
192 191
192 193
192 194
192 195
192 196
192 197
192 200
192 404
193 187
193 188
193 189
193 190
193 191
193 192
193 194
193 195
193 196
193 197
193 198
193 200
193 404
193 405
193 406
193 407
193 408
194 152
194 153
194 174
194 176
194 188
194 189
194 190
194 191
194 192
194 193
194 195
194 196
194 197
194 198
194 199
194 200
194 201
194 404
194 408
195 173
195 174
195 190
195 191
195 192
195 193
195 194
195 196
195 197
195 198
195 199
195 200
195 201
195 423
195 428
195 432
196 191
196 192
196 193
196 194
196 195
196 197
196 198
196 199
196 200
196 408
196 410
196 419
196 423
197 173
197 174
197 192
197 193
197 194
197 195
197 196
197 198
197 199
197 200
197 408
197 409
197 410
197 411
197 414
197 415
197 416
197 418
197 419
197 420
197 422
197 423
198 171
198 172
198 173
198 174
198 193
198 194
198 195
198 196
198 197
198 199
198 200
198 201
198 414
198 418
198 419
198 420
198 421
198 422
198 423
199 144
199 171
199 172
199 173
199 174
199 175
199 191
199 194
199 195
199 196
199 197
199 198
199 200
199 201
199 242
199 419
199 422
199 423
199 424
199 426
199 427
199 428
199 431
199 432
200 144
200 145
200 146
200 147
200 172
200 173
200 174
200 175
200 176
200 190
200 191
200 192
200 193
200 194
200 195
200 196
200 197
200 198
200 199
200 201
200 202
200 203
200 238
200 239
200 428
200 431
200 432
200 435
201 144
201 146
201 173
201 174
201 175
201 176
201 177
201 191
201 194
201 195
201 198
201 199
201 200
201 202
201 203
201 204
201 235
201 236
201 238
201 239
201 242
201 431
201 432
201 434
201 435
201 438
202 147
202 149
202 174
202 175
202 176
202 177
202 178
202 179
202 187
202 188
202 190
202 191
202 200
202 201
202 203
202 204
202 234
202 235
202 236
202 238
202 239
202 431
202 432
202 434
202 435
202 436
202 437
202 438
202 439
202 442
203 146
203 147
203 148
203 149
203 175
203 176
203 177
203 178
203 179
203 180
203 200
203 201
203 202
203 204
203 205
203 206
203 233
203 234
203 235
203 236
203 237
203 238
203 239
203 269
203 272
203 435
203 438
203 439
203 442
204 149
204 175
204 176
204 177
204 178
204 179
204 180
204 181
204 201
204 202
204 203
204 205
204 206
204 207
204 231
204 232
204 233
204 234
204 235
204 236
204 265
204 268
204 269
204 272
204 438
204 439
204 442
205 177
205 178
205 179
205 180
205 203
205 204
205 206
205 207
205 208
205 231
205 232
205 233
205 234
205 235
205 236
205 265
205 266
205 267
205 268
205 269
205 270
205 271
205 272
205 273
206 178
206 203
206 204
206 205
206 207
206 208
206 209
206 210
206 229
206 230
206 231
206 232
206 233
206 234
206 268
206 269
206 271
206 272
206 273
206 275
207 204
207 205
207 206
207 208
207 209
207 210
207 229
207 230
207 231
207 232
207 233
207 265
207 268
207 269
207 271
207 272
207 277
207 281
208 205
208 206
208 207
208 209
208 210
208 211
208 231
208 232
208 233
208 268
208 271
208 272
208 275
208 276
208 277
209 206
209 207
209 208
209 210
209 211
209 212
209 231
209 232
209 233
209 271
209 272
209 274
209 275
209 276
209 277
210 206
210 207
210 208
210 209
210 211
210 212
210 213
210 231
210 232
210 272
210 275
210 276
211 208
211 209
211 210
211 212
211 213
211 214
211 275
211 276
212 209
212 210
212 211
212 213
212 214
212 215
213 210
213 211
213 212
213 214
213 215
213 216
214 211
214 212
214 213
214 215
214 216
214 217
215 212
215 213
215 214
215 216
215 217
215 218
216 213
216 214
216 215
216 217
216 218
216 219
217 214
217 215
217 216
217 218
217 219
217 220
218 215
218 216
218 217
218 219
218 220
218 221
219 216
219 217
219 218
219 220
219 221
219 222
220 217
220 218
220 219
220 221
220 222
220 223
221 218
221 219
221 220
221 222
221 223
221 224
222 219
222 220
222 221
222 223
222 224
222 225
223 220
223 221
223 222
223 224
223 225
223 226
223 227
224 221
224 222
224 223
224 225
224 226
224 227
225 222
225 223
225 224
225 226
225 227
225 228
226 223
226 224
226 225
226 227
226 228
226 229
227 223
227 224
227 225
227 226
227 228
227 229
227 230
228 225
228 226
228 227
228 229
228 230
228 231
228 443
228 445
229 180
229 206
229 207
229 226
229 227
229 228
229 230
229 231
229 232
229 443
230 180
230 206
230 207
230 227
230 228
230 229
230 231
230 232
230 233
230 442
230 443
231 204
231 205
231 206
231 207
231 208
231 209
231 210
231 228
231 229
231 230
231 232
231 233
231 234
232 204
232 205
232 206
232 207
232 208
232 209
232 210
232 229
232 230
232 231
232 233
232 234
232 272
232 441
232 442
233 203
233 204
233 205
233 206
233 207
233 208
233 209
233 230
233 231
233 232
233 234
233 235
233 236
233 237
233 269
233 272
233 273
233 275
233 438
233 442
234 177
234 178
234 179
234 180
234 202
234 203
234 204
234 205
234 206
234 231
234 232
234 233
234 235
234 236
234 237
234 238
234 239
234 272
234 273
234 434
234 435
234 437
234 438
234 439
234 441
234 442
235 175
235 176
235 177
235 179
235 201
235 202
235 203
235 204
235 205
235 233
235 234
235 236
235 237
235 238
235 239
235 240
235 269
235 272
235 273
235 431
235 434
235 435
235 436
235 437
235 438
235 439
235 441
235 442
236 201
236 202
236 203
236 204
236 205
236 233
236 234
236 235
236 237
236 238
236 239
236 240
236 241
236 242
236 269
236 272
236 273
236 274
236 434
236 438
237 203
237 233
237 234
237 235
237 236
237 238
237 239
237 240
237 241
237 242
237 243
237 273
237 431
237 434
237 435
237 438
238 200
238 201
238 202
238 203
238 234
238 235
238 236
238 237
238 239
238 240
238 241
238 242
238 243
238 244
238 430
238 431
238 432
238 433
238 434
238 435
238 437
238 438
239 144
239 173
239 175
239 200
239 201
239 202
239 203
239 234
239 235
239 236
239 237
239 238
239 240
239 241
239 242
239 243
239 244
239 273
239 431
239 434
239 435
240 235
240 236
240 237
240 238
240 239
240 241
240 242
240 243
240 244
240 245
240 246
240 273
240 296
240 300
241 236
241 237
241 238
241 239
241 240
241 242
241 243
241 244
241 245
241 246
241 247
241 426
241 427
241 430
241 431
241 434
242 173
242 199
242 201
242 236
242 237
242 238
242 239
242 240
242 241
242 243
242 244
242 245
242 246
242 247
242 425
242 426
242 427
242 428
242 430
242 431
242 434
243 142
243 173
243 237
243 238
243 239
243 240
243 241
243 242
243 244
243 245
243 246
243 247
243 248
243 249
243 254
243 255
243 256
243 300
243 425
243 426
243 427
244 238
244 239
244 240
244 241
244 242
244 243
244 245
244 246
244 247
244 248
244 249
244 250
244 254
244 299
244 300
244 426
245 240
245 241
245 242
245 243
245 244
245 246
245 247
245 248
245 249
245 250
245 251
245 425
245 426
245 427
246 142
246 171
246 240
246 241
246 242
246 243
246 244
246 245
246 247
246 248
246 249
246 250
246 251
246 252
246 254
246 424
246 425
246 426
246 427
247 141
247 142
247 241
247 242
247 243
247 244
247 245
247 246
247 248
247 249
247 250
247 251
247 252
247 253
247 254
247 255
247 299
247 300
247 425
247 426
248 243
248 244
248 245
248 246
248 247
248 249
248 250
248 251
248 252
248 253
248 254
248 299
248 425
249 243
249 244
249 245
249 246
249 247
249 248
249 250
249 251
249 252
249 425
249 426
250 141
250 244
250 245
250 246
250 247
250 248
250 249
250 251
250 252
250 253
250 254
250 425
251 245
251 246
251 247
251 248
251 249
251 250
251 252
251 253
251 254
251 299
252 246
252 247
252 248
252 249
252 250
252 251
252 253
252 254
252 255
252 299
252 300
253 141
253 247
253 248
253 250
253 251
253 252
253 254
253 255
253 256
253 297
253 298
253 299
253 300
253 301
254 140
254 141
254 142
254 243
254 244
254 246
254 247
254 248
254 250
254 251
254 252
254 253
254 255
254 256
254 257
254 298
254 299
254 300
254 301
254 302
255 136
255 139
255 140
255 141
255 142
255 143
255 243
255 247
255 252
255 253
255 254
255 256
255 257
255 258
255 293
255 294
255 295
255 299
255 300
255 301
255 302
255 303
256 136
256 137
256 139
256 140
256 141
256 142
256 143
256 144
256 170
256 171
256 172
256 243
256 253
256 254
256 255
256 257
256 258
256 259
256 293
256 294
256 295
256 296
256 300
256 301
256 302
256 303
256 304
257 133
257 135
257 136
257 137
257 138
257 139
257 140
257 141
257 142
257 143
257 144
257 145
257 172
257 254
257 255
257 256
257 258
257 259
257 291
257 292
257 293
257 301
257 302
257 303
257 304
257 305
258 133
258 136
258 137
258 140
258 142
258 143
258 144
258 145
258 146
258 173
258 175
258 255
258 256
258 257
258 259
258 260
258 266
258 267
258 269
258 270
258 291
258 302
258 303
258 304
258 305
258 306
258 307
259 133
259 136
259 137
259 143
259 144
259 145
259 146
259 147
259 157
259 160
259 174
259 175
259 256
259 257
259 258
259 260
259 261
259 262
259 264
259 265
259 266
259 267
259 303
259 304
259 305
259 306
259 307
259 308
260 133
260 144
260 145
260 146
260 147
260 148
260 155
260 156
260 157
260 160
260 174
260 175
260 258
260 259
260 261
260 262
260 263
260 264
260 265
260 266
260 305
260 306
260 307
260 308
260 309
260 461
261 145
261 146
261 147
261 148
261 154
261 155
261 156
261 157
261 259
261 260
261 262
261 263
261 264
261 265
261 266
261 285
261 306
261 307
261 308
261 309
261 310
261 321
261 322
261 323
261 459
261 461
262 146
262 148
262 155
262 259
262 260
262 261
262 263
262 264
262 265
262 266
262 283
262 284
262 285
262 286
262 287
262 288
262 306
262 307
262 308
262 309
262 310
262 321
262 322
262 323
262 324
262 394
263 146
263 147
263 148
263 260
263 261
263 262
263 264
263 265
263 266
263 267
263 268
263 281
263 282
263 283
263 284
263 285
263 286
263 307
263 321
263 322
263 323
263 324
263 394
263 395
263 396
264 145
264 146
264 147
264 148
264 149
264 150
264 152
264 155
264 175
264 176
264 177
264 178
264 259
264 260
264 261
264 262
264 263
264 265
264 266
264 267
264 268
264 269
264 283
264 307
264 322
264 394
264 395
264 396
265 146
265 147
265 148
265 177
265 178
265 204
265 205
265 207
265 259
265 260
265 261
265 262
265 263
265 264
265 266
265 267
265 268
265 269
265 270
265 281
265 282
265 283
265 396
266 144
266 145
266 146
266 147
266 175
266 177
266 205
266 258
266 259
266 260
266 261
266 262
266 263
266 264
266 265
266 267
266 268
266 269
266 270
266 271
266 279
266 281
266 288
266 304
266 305
266 306
266 307
267 205
267 258
267 259
267 263
267 264
267 265
267 266
267 268
267 269
267 270
267 271
267 272
267 273
267 277
267 278
267 279
267 280
267 281
267 282
267 287
267 288
267 292
267 303
267 304
267 305
267 306
268 177
268 204
268 205
268 206
268 207
268 208
268 263
268 264
268 265
268 266
268 267
268 269
268 270
268 271
268 272
268 273
268 274
268 277
268 278
268 279
268 280
268 281
268 282
269 146
269 175
269 177
269 178
269 203
269 204
269 205
269 206
269 207
269 233
269 235
269 236
269 258
269 264
269 265
269 266
269 267
269 268
269 270
269 271
269 272
269 273
269 274
269 275
269 279
269 281
269 304
270 205
270 258
270 265
270 266
270 267
270 268
270 269
270 271
270 272
270 273
270 274
270 275
270 276
270 277
270 278
270 279
270 294
270 296
270 302
270 303
270 304
271 205
271 206
271 207
271 208
271 209
271 266
271 267
271 268
271 269
271 270
271 272
271 273
271 274
271 275
271 276
271 277
271 278
271 279
271 280
271 281
271 294
271 296
272 203
272 204
272 205
272 206
272 207
272 208
272 209
272 210
272 232
272 233
272 234
272 235
272 236
272 267
272 268
272 269
272 270
272 271
272 273
272 274
272 275
272 276
272 277
272 278
273 205
273 206
273 233
273 234
273 235
273 236
273 237
273 239
273 240
273 267
273 268
273 269
273 270
273 271
273 272
273 274
273 275
273 276
273 296
273 302
274 209
274 236
274 268
274 269
274 270
274 271
274 272
274 273
274 275
274 276
274 277
274 278
274 294
274 295
274 296
274 297
274 302
275 206
275 208
275 209
275 210
275 211
275 233
275 269
275 270
275 271
275 272
275 273
275 274
275 276
275 277
275 278
275 296
276 208
276 209
276 210
276 211
276 270
276 271
276 272
276 273
276 274
276 275
276 277
276 278
276 279
277 207
277 208
277 209
277 267
277 268
277 270
277 271
277 272
277 274
277 275
277 276
277 278
277 279
277 280
277 281
278 267
278 268
278 270
278 271
278 272
278 274
278 275
278 276
278 277
278 279
278 280
278 281
278 292
278 293
278 294
278 295
279 266
279 267
279 268
279 269
279 270
279 271
279 276
279 277
279 278
279 280
279 281
279 287
279 288
279 292
279 293
279 294
279 304
280 267
280 268
280 271
280 277
280 278
280 279
280 281
280 282
280 287
280 288
281 207
281 263
281 265
281 266
281 267
281 268
281 269
281 271
281 277
281 278
281 279
281 280
281 282
281 283
281 284
281 285
281 287
281 288
282 263
282 265
282 267
282 268
282 280
282 281
282 283
282 284
282 285
282 286
282 287
282 288
282 395
283 262
283 263
283 264
283 265
283 281
283 282
283 284
283 285
283 286
283 287
283 324
283 391
283 394
283 395
283 396
284 262
284 263
284 281
284 282
284 283
284 285
284 286
284 287
284 288
284 324
284 325
284 326
284 395
285 261
285 262
285 263
285 281
285 282
285 283
285 284
285 286
285 287
285 288
285 289
285 306
285 307
285 322
285 323
285 324
285 325
285 326
285 327
286 125
286 129
286 262
286 263
286 282
286 283
286 284
286 285
286 287
286 288
286 289
286 290
286 306
286 307
286 308
286 324
286 326
286 327
287 262
287 267
287 279
287 280
287 281
287 282
287 283
287 284
287 285
287 286
287 288
287 289
287 290
287 306
287 307
288 129
288 262
288 266
288 267
288 279
288 280
288 281
288 282
288 284
288 285
288 286
288 287
288 289
288 290
288 291
288 292
288 304
288 305
288 306
288 307
289 125
289 128
289 129
289 132
289 133
289 285
289 286
289 287
289 288
289 290
289 291
289 292
289 304
289 305
289 306
289 307
290 128
290 129
290 131
290 132
290 133
290 136
290 286
290 287
290 288
290 289
290 291
290 292
290 293
290 304
290 305
290 306
290 307
291 129
291 132
291 133
291 135
291 136
291 257
291 258
291 288
291 289
291 290
291 292
291 293
291 294
291 303
291 304
291 305
291 306
292 136
292 257
292 267
292 278
292 279
292 288
292 289
292 290
292 291
292 293
292 294
292 295
292 302
292 303
292 304
292 305
292 306
293 136
293 255
293 256
293 257
293 278
293 279
293 290
293 291
293 292
293 294
293 295
293 296
293 301
293 302
293 303
293 304
293 305
294 255
294 256
294 270
294 271
294 274
294 278
294 279
294 291
294 292
294 293
294 295
294 296
294 297
294 300
294 301
294 302
294 303
294 304
295 255
295 256
295 274
295 278
295 292
295 293
295 294
295 296
295 297
295 298
295 299
295 300
295 301
295 302
295 303
296 240
296 256
296 270
296 271
296 273
296 274
296 275
296 293
296 294
296 295
296 297
296 298
296 299
296 300
296 301
296 302
297 253
297 274
297 294
297 295
297 296
297 298
297 299
297 300
297 301
297 302
298 253
298 254
298 295
298 296
298 297
298 299
298 300
298 301
299 244
299 247
299 248
299 251
299 252
299 253
299 254
299 255
299 295
299 296
299 297
299 298
299 300
299 301
300 240
300 243
300 244
300 247
300 252
300 253
300 254
300 255
300 256
300 294
300 295
300 296
300 297
300 298
300 299
300 301
300 302
301 140
301 253
301 254
301 255
301 256
301 257
301 293
301 294
301 295
301 296
301 297
301 298
301 299
301 300
301 302
301 303
302 140
302 142
302 143
302 144
302 254
302 255
302 256
302 257
302 258
302 270
302 273
302 274
302 292
302 293
302 294
302 295
302 296
302 297
302 300
302 301
302 303
302 304
302 305
303 136
303 137
303 139
303 140
303 143
303 144
303 255
303 256
303 257
303 258
303 259
303 267
303 270
303 291
303 292
303 293
303 294
303 295
303 301
303 302
303 304
303 305
304 133
304 136
304 256
304 257
304 258
304 259
304 266
304 267
304 269
304 270
304 279
304 288
304 289
304 290
304 291
304 292
304 293
304 294
304 302
304 303
304 305
304 306
304 307
305 129
305 132
305 133
305 134
305 135
305 136
305 137
305 257
305 258
305 259
305 260
305 266
305 267
305 288
305 289
305 290
305 291
305 292
305 293
305 302
305 303
305 304
305 306
305 307
305 308
306 128
306 129
306 130
306 131
306 132
306 133
306 136
306 258
306 259
306 260
306 261
306 262
306 266
306 267
306 285
306 286
306 287
306 288
306 289
306 290
306 291
306 292
306 304
306 305
306 307
306 308
306 309
307 129
307 130
307 132
307 133
307 258
307 259
307 260
307 261
307 262
307 263
307 264
307 266
307 285
307 286
307 287
307 288
307 289
307 290
307 304
307 305
307 306
307 308
307 309
307 310
307 322
308 126
308 129
308 130
308 133
308 155
308 156
308 157
308 160
308 259
308 260
308 261
308 262
308 286
308 305
308 306
308 307
308 309
308 310
308 311
308 322
308 323
308 460
308 461
308 462
308 463
309 126
309 127
309 129
309 130
309 157
309 260
309 261
309 262
309 306
309 307
309 308
309 310
309 311
309 312
309 322
309 323
309 327
309 328
309 460
309 461
309 462
309 463
309 468
310 157
310 261
310 262
310 307
310 308
310 309
310 311
310 312
310 313
310 314
310 318
310 319
310 322
310 323
310 327
310 328
310 459
310 460
310 461
310 462
310 463
311 308
311 309
311 310
311 312
311 313
311 314
311 315
311 318
311 319
311 323
311 459
311 460
311 461
311 462
311 463
311 467
311 468
311 469
312 309
312 310
312 311
312 313
312 314
312 315
312 316
312 318
312 319
312 323
312 328
312 460
312 461
312 462
312 468
312 469
313 310
313 311
313 312
313 314
313 315
313 316
313 318
313 319
313 459
313 460
313 461
314 310
314 311
314 312
314 313
314 315
314 316
314 317
314 318
314 319
314 320
314 456
314 457
314 458
314 459
314 460
314 461
315 311
315 312
315 313
315 314
315 316
315 317
315 318
315 319
315 320
315 338
315 456
315 457
315 459
315 460
316 312
316 313
316 314
316 315
316 317
316 318
316 319
316 320
316 321
316 323
316 330
316 334
316 335
316 336
316 337
316 338
316 339
316 456
317 314
317 315
317 316
317 318
317 319
317 320
317 321
317 322
317 323
317 334
317 335
317 336
317 337
317 338
317 339
317 340
317 341
317 342
317 454
317 455
317 456
318 154
318 155
318 310
318 311
318 312
318 313
318 314
318 315
318 316
318 317
318 319
318 320
318 321
318 322
318 323
318 335
318 338
318 339
318 455
318 456
318 457
318 458
318 459
318 460
319 310
319 311
319 312
319 313
319 314
319 315
319 316
319 317
319 318
319 320
319 321
319 322
319 323
319 324
319 325
319 328
319 330
319 335
319 338
319 339
319 459
320 314
320 315
320 316
320 317
320 318
320 319
320 321
320 322
320 323
320 324
320 325
320 328
320 330
320 331
320 332
320 333
320 334
320 335
320 336
320 337
320 338
320 339
320 390
320 393
320 394
321 151
321 154
321 155
321 261
321 262
321 263
321 316
321 317
321 318
321 319
321 320
321 322
321 323
321 324
321 335
321 336
321 338
321 339
321 390
321 391
321 393
321 394
321 395
322 154
322 155
322 261
322 262
322 263
322 264
322 285
322 307
322 308
322 309
322 310
322 317
322 318
322 319
322 320
322 321
322 323
322 324
322 325
322 394
322 459
323 261
323 262
323 263
323 285
323 308
323 309
323 310
323 311
323 312
323 316
323 317
323 318
323 319
323 320
323 321
323 322
323 324
323 325
323 326
323 327
323 328
323 329
323 330
323 335
323 394
324 262
324 263
324 283
324 284
324 285
324 286
324 319
324 320
324 321
324 322
324 323
324 325
324 326
324 327
324 328
324 329
324 330
324 331
324 332
324 335
324 390
324 391
324 394
324 395
325 284
325 285
325 319
325 320
325 322
325 323
325 324
325 326
325 327
325 328
325 329
325 330
325 331
325 332
325 335
326 284
326 285
326 286
326 323
326 324
326 325
326 327
326 328
326 329
326 330
327 125
327 126
327 285
327 286
327 309
327 310
327 323
327 324
327 325
327 326
327 328
327 329
327 330
328 309
328 310
328 312
328 319
328 320
328 323
328 324
328 325
328 326
328 327
328 329
328 330
328 331
329 323
329 324
329 325
329 326
329 327
329 328
329 330
329 331
329 332
330 316
330 319
330 320
330 323
330 324
330 325
330 326
330 327
330 328
330 329
330 331
330 332
330 333
330 334
330 335
330 336
331 320
331 324
331 325
331 328
331 329
331 330
331 332
331 333
331 334
331 335
331 336
331 383
331 386
331 387
332 320
332 324
332 325
332 329
332 330
332 331
332 333
332 334
332 335
332 336
332 337
332 338
332 383
332 384
332 385
332 386
332 387
332 388
332 389
332 390
332 391
333 320
333 330
333 331
333 332
333 334
333 335
333 336
333 337
333 338
333 339
333 360
333 361
333 364
333 382
333 383
333 384
333 385
333 386
333 387
333 389
333 390
334 316
334 317
334 320
334 330
334 331
334 332
334 333
334 335
334 336
334 337
334 338
334 339
334 340
334 360
334 383
334 386
334 390
335 316
335 317
335 318
335 319
335 320
335 321
335 323
335 324
335 325
335 330
335 331
335 332
335 333
335 334
335 336
335 337
335 338
335 339
335 340
335 386
335 387
335 389
335 390
336 316
336 317
336 320
336 321
336 330
336 331
336 332
336 333
336 334
336 335
336 337
336 338
336 339
336 340
336 341
336 360
336 364
336 383
336 385
336 386
336 387
336 388
336 389
336 390
336 391
336 393
337 316
337 317
337 320
337 332
337 333
337 334
337 335
337 336
337 338
337 339
337 340
337 341
337 342
337 343
337 359
337 360
337 361
337 363
337 364
337 386
337 389
337 390
338 315
338 316
338 317
338 318
338 319
338 320
338 321
338 332
338 333
338 334
338 335
338 336
338 337
338 339
338 340
338 341
338 342
338 343
338 360
338 390
339 316
339 317
339 318
339 319
339 320
339 321
339 333
339 334
339 335
339 336
339 337
339 338
339 340
339 341
339 342
339 343
339 360
339 389
339 390
339 393
339 453
339 454
339 455
340 317
340 334
340 335
340 336
340 337
340 338
340 339
340 341
340 342
340 343
340 344
340 345
340 348
340 359
340 360
340 363
340 389
340 390
340 453
341 317
341 336
341 337
341 338
341 339
341 340
341 342
341 343
341 344
341 345
341 359
341 360
341 453
341 454
342 317
342 337
342 338
342 339
342 340
342 341
342 343
342 344
342 345
342 452
342 453
342 454
342 455
342 456
343 337
343 338
343 339
343 340
343 341
343 342
343 344
343 345
343 346
343 347
343 348
343 400
343 401
343 402
343 451
343 452
343 453
343 454
343 455
344 340
344 341
344 342
344 343
344 345
344 346
344 347
344 348
344 349
344 400
344 450
344 451
344 452
344 453
344 454
345 340
345 341
345 342
345 343
345 344
345 346
345 347
345 348
345 349
345 350
345 351
345 356
345 357
345 358
345 451
345 452
345 453
346 343
346 344
346 345
346 347
346 348
346 349
346 350
346 351
346 354
346 355
346 356
346 357
346 451
346 452
347 343
347 344
347 345
347 346
347 348
347 349
347 350
347 351
347 352
347 353
347 400
347 447
347 448
347 449
347 450
347 451
347 452
347 453
348 340
348 343
348 344
348 345
348 346
348 347
348 349
348 350
348 351
348 352
348 353
348 354
348 355
348 356
348 357
348 363
348 400
348 448
348 449
348 450
348 451
348 452
349 344
349 345
349 346
349 347
349 348
349 350
349 351
349 352
349 353
349 354
349 355
349 356
349 357
349 363
349 367
349 451
350 345
350 346
350 347
350 348
350 349
350 351
350 352
350 353
350 354
350 355
350 356
350 448
350 449
350 450
350 451
351 345
351 346
351 347
351 348
351 349
351 350
351 352
351 353
351 354
351 398
351 399
351 448
351 449
351 450
351 451
352 347
352 348
352 349
352 350
352 351
352 353
352 354
352 355
352 363
352 366
352 367
352 370
352 371
352 389
352 449
353 347
353 348
353 349
353 350
353 351
353 352
353 354
353 355
353 356
353 366
353 367
353 370
354 346
354 348
354 349
354 350
354 351
354 352
354 353
354 355
354 356
354 357
354 363
354 364
354 366
354 367
354 369
354 370
355 346
355 348
355 349
355 350
355 352
355 353
355 354
355 356
355 357
355 362
355 363
355 366
355 367
356 345
356 346
356 348
356 349
356 350
356 353
356 354
356 355
356 357
356 358
356 359
356 362
356 363
356 366
357 345
357 346
357 348
357 349
357 354
357 355
357 356
357 358
357 359
357 360
357 361
357 362
357 363
357 364
357 365
357 366
358 345
358 356
358 357
358 359
358 360
358 361
358 362
358 363
359 337
359 340
359 341
359 356
359 357
359 358
359 360
359 361
359 362
359 363
359 364
360 333
360 334
360 336
360 337
360 338
360 339
360 340
360 341
360 357
360 358
360 359
360 361
360 362
360 363
360 364
360 365
360 382
360 386
361 333
361 337
361 357
361 358
361 359
361 360
361 362
361 363
361 364
361 365
361 366
361 367
361 382
361 383
361 385
361 386
362 355
362 356
362 357
362 358
362 359
362 360
362 361
362 363
362 364
362 365
362 366
362 367
362 368
362 382
363 337
363 340
363 348
363 349
363 352
363 354
363 355
363 356
363 357
363 358
363 359
363 360
363 361
363 362
363 364
363 365
363 366
363 367
363 368
363 369
363 382
363 385
363 386
364 333
364 336
364 337
364 354
364 357
364 359
364 360
364 361
364 362
364 363
364 365
364 366
364 367
364 368
364 369
364 370
364 380
364 381
364 382
364 383
364 384
364 385
364 386
364 387
364 388
364 389
365 357
365 360
365 361
365 362
365 363
365 364
365 366
365 367
365 368
365 369
365 370
365 371
365 373
365 374
365 379
365 380
365 381
365 382
365 383
365 384
365 385
365 386
366 352
366 353
366 354
366 355
366 356
366 357
366 361
366 362
366 363
366 364
366 365
366 367
366 368
366 369
366 370
366 371
366 372
366 373
366 380
366 381
366 382
366 385
367 349
367 352
367 353
367 354
367 355
367 361
367 362
367 363
367 364
367 365
367 366
367 368
367 369
367 370
367 371
367 372
367 373
367 380
367 381
367 382
367 384
367 385
367 386
367 388
367 389
368 362
368 363
368 364
368 365
368 366
368 367
368 369
368 370
368 371
368 372
368 373
368 374
368 375
368 379
368 380
368 381
368 382
368 383
368 384
368 385
368 386
368 388
369 354
369 363
369 364
369 365
369 366
369 367
369 368
369 370
369 371
369 372
369 373
369 374
369 378
369 379
369 380
369 381
369 382
369 385
370 352
370 353
370 354
370 364
370 365
370 366
370 367
370 368
370 369
370 371
370 372
370 373
370 380
370 385
371 352
371 365
371 366
371 367
371 368
371 369
371 370
371 372
371 373
371 374
371 380
371 381
371 385
372 366
372 367
372 368
372 369
372 370
372 371
372 373
372 374
372 375
372 378
372 380
372 381
372 385
373 365
373 366
373 367
373 368
373 369
373 370
373 371
373 372
373 374
373 375
373 378
373 379
373 380
373 381
373 382
373 383
373 384
373 385
374 365
374 368
374 369
374 371
374 372
374 373
374 375
374 376
374 377
374 378
374 379
374 380
374 381
374 382
374 384
374 385
375 368
375 372
375 373
375 374
375 376
375 377
375 378
375 379
375 380
375 381
375 382
375 383
375 384
376 374
376 375
376 377
376 378
376 379
376 380
376 381
377 374
377 375
377 376
377 378
377 379
377 380
378 369
378 372
378 373
378 374
378 375
378 376
378 377
378 379
378 380
378 381
379 365
379 368
379 369
379 373
379 374
379 375
379 376
379 377
379 378
379 380
379 381
379 382
380 364
380 365
380 366
380 367
380 368
380 369
380 370
380 371
380 372
380 373
380 374
380 375
380 376
380 377
380 378
380 379
380 381
380 382
380 383
380 384
380 385
381 364
381 365
381 366
381 367
381 368
381 369
381 371
381 372
381 373
381 374
381 375
381 376
381 378
381 379
381 380
381 382
381 383
381 384
381 385
381 386
382 333
382 360
382 361
382 362
382 363
382 364
382 365
382 366
382 367
382 368
382 369
382 373
382 374
382 375
382 379
382 380
382 381
382 383
382 384
382 385
382 386
382 387
382 388
383 331
383 332
383 333
383 334
383 336
383 361
383 364
383 365
383 368
383 373
383 375
383 380
383 381
383 382
383 384
383 385
383 386
383 387
383 388
383 389
384 332
384 333
384 364
384 365
384 367
384 368
384 373
384 374
384 375
384 380
384 381
384 382
384 383
384 385
384 386
384 387
384 388
384 389
384 390
385 332
385 333
385 336
385 361
385 363
385 364
385 365
385 366
385 367
385 368
385 369
385 370
385 371
385 372
385 373
385 374
385 380
385 381
385 382
385 383
385 384
385 386
385 387
385 388
385 389
385 390
385 391
386 331
386 332
386 333
386 334
386 335
386 336
386 337
386 360
386 361
386 363
386 364
386 365
386 367
386 368
386 381
386 382
386 383
386 384
386 385
386 387
386 388
386 389
386 390
386 391
387 331
387 332
387 333
387 335
387 336
387 364
387 382
387 383
387 384
387 385
387 386
387 388
387 389
387 390
387 391
387 392
388 332
388 336
388 364
388 367
388 368
388 382
388 383
388 384
388 385
388 386
388 387
388 389
388 390
388 391
388 392
388 393
389 332
389 333
389 335
389 336
389 337
389 339
389 340
389 352
389 364
389 367
389 383
389 384
389 385
389 386
389 387
389 388
389 390
389 391
389 392
389 393
389 394
389 395
389 398
390 320
390 321
390 324
390 332
390 333
390 334
390 335
390 336
390 337
390 338
390 339
390 340
390 384
390 385
390 386
390 387
390 388
390 389
390 391
390 392
390 393
390 394
390 395
391 283
391 321
391 324
391 332
391 336
391 385
391 386
391 387
391 388
391 389
391 390
391 392
391 393
391 394
391 395
391 396
391 397
391 398
392 387
392 388
392 389
392 390
392 391
392 393
392 394
392 395
392 396
392 397
392 398
392 399
393 320
393 321
393 336
393 339
393 388
393 389
393 390
393 391
393 392
393 394
393 395
393 396
393 397
393 398
393 399
393 400
394 262
394 263
394 264
394 283
394 320
394 321
394 322
394 323
394 324
394 389
394 390
394 391
394 392
394 393
394 395
394 396
394 397
394 398
395 263
395 264
395 282
395 283
395 284
395 321
395 324
395 389
395 390
395 391
395 392
395 393
395 394
395 396
395 397
395 398
395 399
396 148
396 178
396 180
396 181
396 263
396 264
396 265
396 283
396 391
396 392
396 393
396 394
396 395
396 397
396 398
396 399
397 181
397 391
397 392
397 393
397 394
397 395
397 396
397 398
397 399
397 400
398 150
398 181
398 182
398 351
398 389
398 391
398 392
398 393
398 394
398 395
398 396
398 397
398 399
398 400
398 401
398 445
398 449
398 450
398 451
399 150
399 178
399 180
399 181
399 182
399 183
399 351
399 392
399 393
399 395
399 396
399 397
399 398
399 400
399 401
399 444
399 445
399 446
399 447
399 449
399 450
399 451
399 452
400 149
400 150
400 151
400 181
400 182
400 183
400 343
400 344
400 347
400 348
400 393
400 397
400 398
400 399
400 401
400 402
400 445
400 447
400 449
400 450
400 451
400 452
400 453
401 148
401 149
401 150
401 151
401 152
401 181
401 182
401 183
401 186
401 187
401 343
401 398
401 399
401 400
401 402
401 403
401 404
401 447
401 450
401 451
401 452
401 453
401 454
401 455
402 149
402 150
402 151
402 152
402 153
402 154
402 182
402 186
402 187
402 190
402 343
402 400
402 401
402 403
402 404
402 405
402 451
402 452
402 453
402 454
402 455
402 456
403 150
403 151
403 152
403 153
403 186
403 187
403 189
403 190
403 401
403 402
403 404
403 405
403 406
403 452
403 453
403 454
403 455
404 151
404 152
404 153
404 186
404 187
404 189
404 190
404 191
404 192
404 193
404 194
404 401
404 402
404 403
404 405
404 406
404 407
404 408
404 454
404 455
404 457
405 153
405 189
405 190
405 193
405 402
405 403
405 404
405 406
405 407
405 408
405 409
405 455
405 457
406 193
406 403
406 404
406 405
406 407
406 408
406 409
407 193
407 404
407 405
407 406
407 408
407 409
407 410
408 193
408 194
408 196
408 197
408 404
408 405
408 406
408 407
408 409
408 410
408 411
409 197
409 405
409 406
409 407
409 408
409 410
409 411
409 412
409 414
410 196
410 197
410 407
410 408
410 409
410 411
410 412
410 413
410 414
410 415
410 416
410 419
411 158
411 161
411 162
411 197
411 408
411 409
411 410
411 412
411 413
411 414
411 415
411 458
412 158
412 162
412 409
412 410
412 411
412 413
412 414
412 415
413 158
413 159
413 161
413 162
413 163
413 165
413 166
413 410
413 411
413 412
413 414
413 415
413 418
414 161
414 162
414 165
414 197
414 198
414 409
414 410
414 411
414 412
414 413
414 415
414 416
414 417
414 418
414 419
414 422
415 197
415 410
415 411
415 412
415 413
415 414
415 416
415 417
415 418
415 419
415 420
415 421
416 197
416 410
416 414
416 415
416 417
416 418
416 419
416 420
416 421
416 422
417 414
417 415
417 416
417 418
417 419
417 420
417 421
417 422
417 423
418 165
418 166
418 168
418 197
418 198
418 413
418 414
418 415
418 416
418 417
418 419
418 420
418 421
418 422
418 423
418 424
419 165
419 172
419 196
419 197
419 198
419 199
419 410
419 414
419 415
419 416
419 417
419 418
419 420
419 421
419 422
419 423
419 424
420 197
420 198
420 415
420 416
420 417
420 418
420 419
420 421
420 422
420 423
420 424
421 165
421 168
421 169
421 170
421 171
421 198
421 415
421 416
421 417
421 418
421 419
421 420
421 422
421 423
421 424
421 425
422 165
422 168
422 169
422 170
422 171
422 172
422 173
422 197
422 198
422 199
422 414
422 416
422 417
422 418
422 419
422 420
422 421
422 423
422 424
422 425
422 426
423 171
423 172
423 173
423 195
423 196
423 197
423 198
423 199
423 417
423 418
423 419
423 420
423 421
423 422
423 424
423 425
423 426
423 427
423 428
424 171
424 199
424 246
424 418
424 419
424 420
424 421
424 422
424 423
424 425
424 426
424 427
424 428
425 171
425 242
425 243
425 245
425 246
425 247
425 248
425 249
425 250
425 421
425 422
425 423
425 424
425 426
425 427
425 428
426 171
426 173
426 199
426 241
426 242
426 243
426 244
426 245
426 246
426 247
426 249
426 422
426 423
426 424
426 425
426 427
426 428
426 429
426 430
426 431
427 199
427 241
427 242
427 243
427 245
427 246
427 423
427 424
427 425
427 426
427 428
427 429
427 430
427 431
427 432
428 195
428 199
428 200
428 242
428 423
428 424
428 425
428 426
428 427
428 429
428 430
428 431
428 432
428 433
428 434
429 426
429 427
429 428
429 430
429 431
429 432
429 433
429 434
429 435
430 238
430 241
430 242
430 426
430 427
430 428
430 429
430 431
430 432
430 433
430 434
430 435
430 436
431 199
431 200
431 201
431 202
431 235
431 237
431 238
431 239
431 241
431 242
431 426
431 427
431 428
431 429
431 430
431 432
431 433
431 434
431 435
431 436
431 437
432 191
432 195
432 199
432 200
432 201
432 202
432 238
432 427
432 428
432 429
432 430
432 431
432 433
432 434
432 435
432 436
432 437
432 438
433 238
433 428
433 429
433 430
433 431
433 432
433 434
433 435
433 436
433 437
433 438
434 201
434 202
434 234
434 235
434 236
434 237
434 238
434 239
434 241
434 242
434 428
434 429
434 430
434 431
434 432
434 433
434 435
434 436
434 437
434 438
434 439
434 440
435 188
435 191
435 200
435 201
435 202
435 203
435 234
435 235
435 237
435 238
435 239
435 429
435 430
435 431
435 432
435 433
435 434
435 436
435 437
435 438
435 439
435 440
435 441
436 188
436 191
436 202
436 235
436 430
436 431
436 432
436 433
436 434
436 435
436 437
436 438
436 439
436 440
436 441
437 202
437 234
437 235
437 238
437 431
437 432
437 433
437 434
437 435
437 436
437 438
437 439
437 440
437 441
437 442
438 179
438 201
438 202
438 203
438 204
438 233
438 234
438 235
438 236
438 237
438 238
438 432
438 433
438 434
438 435
438 436
438 437
438 439
438 440
438 441
438 442
438 443
439 179
439 180
439 184
439 185
439 187
439 188
439 202
439 203
439 204
439 234
439 235
439 434
439 435
439 436
439 437
439 438
439 440
439 441
439 442
439 443
439 444
440 184
440 434
440 435
440 436
440 437
440 438
440 439
440 441
440 442
440 443
440 444
441 180
441 232
441 234
441 235
441 435
441 436
441 437
441 438
441 439
441 440
441 442
441 443
441 444
442 179
442 180
442 181
442 182
442 183
442 184
442 202
442 203
442 204
442 230
442 232
442 233
442 234
442 235
442 437
442 438
442 439
442 440
442 441
442 443
442 444
442 445
443 179
443 180
443 181
443 182
443 183
443 184
443 228
443 229
443 230
443 438
443 439
443 440
443 441
443 442
443 444
443 445
443 446
444 178
444 179
444 180
444 181
444 182
444 183
444 184
444 185
444 186
444 187
444 399
444 439
444 440
444 441
444 442
444 443
444 445
444 446
444 447
444 450
445 179
445 180
445 181
445 182
445 183
445 184
445 228
445 398
445 399
445 400
445 442
445 443
445 444
445 446
445 447
445 448
445 449
445 450
446 181
446 182
446 183
446 184
446 399
446 443
446 444
446 445
446 447
446 448
446 449
446 450
447 182
447 183
447 347
447 399
447 400
447 401
447 444
447 445
447 446
447 448
447 449
447 450
447 451
447 452
448 347
448 348
448 350
448 351
448 445
448 446
448 447
448 449
448 450
448 451
449 347
449 348
449 350
449 351
449 352
449 398
449 399
449 400
449 445
449 446
449 447
449 448
449 450
449 451
450 181
450 182
450 183
450 344
450 347
450 348
450 350
450 351
450 398
450 399
450 400
450 401
450 444
450 445
450 446
450 447
450 448
450 449
450 451
450 452
450 453
451 150
451 182
451 343
451 344
451 345
451 346
451 347
451 348
451 349
451 350
451 351
451 398
451 399
451 400
451 401
451 402
451 447
451 448
451 449
451 450
451 452
451 453
451 454
452 150
452 182
452 342
452 343
452 344
452 345
452 346
452 347
452 348
452 399
452 400
452 401
452 402
452 403
452 447
452 450
452 451
452 453
452 454
452 455
453 150
453 151
453 339
453 340
453 341
453 342
453 343
453 344
453 345
453 347
453 400
453 401
453 402
453 403
453 450
453 451
453 452
453 454
453 455
453 456
454 151
454 317
454 339
454 341
454 342
454 343
454 344
454 401
454 402
454 403
454 404
454 451
454 452
454 453
454 455
454 456
454 457
455 150
455 151
455 152
455 153
455 154
455 317
455 318
455 339
455 342
455 343
455 401
455 402
455 403
455 404
455 405
455 452
455 453
455 454
455 456
455 457
455 458
456 151
456 153
456 154
456 314
456 315
456 316
456 317
456 318
456 342
456 402
456 453
456 454
456 455
456 457
456 458
456 459
457 151
457 152
457 153
457 154
457 155
457 156
457 314
457 315
457 318
457 404
457 405
457 454
457 455
457 456
457 458
457 459
457 460
458 151
458 152
458 153
458 154
458 155
458 156
458 157
458 158
458 314
458 318
458 411
458 455
458 456
458 457
458 459
458 460
458 461
459 153
459 154
459 155
459 156
459 157
459 158
459 159
459 261
459 310
459 311
459 313
459 314
459 315
459 318
459 319
459 322
459 456
459 457
459 458
459 460
459 461
460 154
460 155
460 156
460 157
460 158
460 159
460 160
460 308
460 309
460 310
460 311
460 312
460 313
460 314
460 315
460 318
460 457
460 458
460 459
460 461
460 462
460 463
461 130
461 156
461 157
461 158
461 159
461 160
461 260
461 261
461 308
461 309
461 310
461 311
461 312
461 313
461 314
461 458
461 459
461 460
461 462
461 463
461 464
461 467
462 126
462 127
462 129
462 130
462 157
462 159
462 160
462 308
462 309
462 310
462 311
462 312
462 460
462 461
462 463
462 464
462 465
462 466
462 467
462 468
463 126
463 127
463 129
463 130
463 131
463 133
463 134
463 157
463 159
463 160
463 163
463 308
463 309
463 310
463 311
463 460
463 461
463 462
463 464
463 465
463 466
463 467
463 468
464 127
464 130
464 131
464 134
464 159
464 461
464 462
464 463
464 465
464 466
464 467
464 468
465 124
465 126
465 127
465 128
465 129
465 130
465 131
465 462
465 463
465 464
465 466
465 467
465 468
465 469
466 127
466 462
466 463
466 464
466 465
466 467
466 468
466 469
466 470
467 127
467 311
467 461
467 462
467 463
467 464
467 465
467 466
467 468
467 469
467 470
468 124
468 126
468 127
468 130
468 309
468 311
468 312
468 462
468 463
468 464
468 465
468 466
468 467
468 469
468 470
468 471
469 311
469 312
469 465
469 466
469 467
469 468
469 470
469 471
469 472
470 123
470 124
470 466
470 467
470 468
470 469
470 471
470 472
470 473
471 124
471 468
471 469
471 470
471 472
471 473
471 474
472 469
472 470
472 471
472 473
472 474
472 475
473 121
473 122
473 470
473 471
473 472
473 474
473 475
473 476
474 471
474 472
474 473
474 475
474 476
474 477
475 472
475 473
475 474
475 476
475 477
475 478
476 473
476 474
476 475
476 477
476 478
476 479
477 474
477 475
477 476
477 478
477 479
477 480
478 475
478 476
478 477
478 479
478 480
478 481
479 476
479 477
479 478
479 480
479 481
479 482
480 477
480 478
480 479
480 481
480 482
480 483
481 478
481 479
481 480
481 482
481 483
481 484
482 479
482 480
482 481
482 483
482 484
482 485
483 480
483 481
483 482
483 484
483 485
483 486
484 481
484 482
484 483
484 485
484 486
484 487
485 482
485 483
485 484
485 486
485 487
485 488
486 483
486 484
486 485
486 487
486 488
486 489
487 484
487 485
487 486
487 488
487 489
488 485
488 486
488 487
488 489
488 490
489 486
489 487
489 488
489 490
489 491
490 488
490 489
490 491
490 492
491 489
491 490
491 492
491 493
492 490
492 491
492 493
492 494
493 491
493 492
493 494
493 495
494 492
494 493
494 495
494 496
495 493
495 494
495 496
495 497
496 494
496 495
496 497
496 498
497 495
497 496
497 498
497 499
498 496
498 497
498 499
498 500
499 497
499 498
499 500
499 501
500 498
500 499
500 501
500 502
501 499
501 500
501 502
501 503
502 500
502 501
502 503
502 504
503 501
503 502
503 504
503 505
504 502
504 503
504 505
504 506
505 503
505 504
505 506
505 507
506 504
506 505
506 507
506 508
507 505
507 506
507 508
507 509
508 506
508 507
508 509
508 510
509 507
509 508
509 510
509 511
510 508
510 509
510 511
510 512
511 509
511 510
511 512
511 513
512 510
512 511
512 513
512 514
513 511
513 512
513 514
513 515
514 512
514 513
514 515
514 516
515 513
515 514
515 516
515 517
516 514
516 515
516 517
516 518
517 515
517 516
517 518
517 519
518 516
518 517
518 519
518 520
519 517
519 518
519 520
519 521
520 518
520 519
520 521
520 522
521 519
521 520
521 522
521 523
522 520
522 521
522 523
522 524
523 521
523 522
523 524
523 525
523 526
524 522
524 523
524 525
524 526
524 527
525 523
525 524
525 526
525 527
525 528
526 523
526 524
526 525
526 527
526 528
526 529
527 524
527 525
527 526
527 528
527 529
527 530
528 525
528 526
528 527
528 529
528 530
528 531
529 526
529 527
529 528
529 530
529 531
530 527
530 528
530 529
530 531
530 532
530 533
531 528
531 529
531 530
531 532
531 533
532 530
532 531
532 533
532 534
533 530
533 531
533 532
533 534
533 535
533 536
534 532
534 533
534 535
534 536
535 533
535 534
535 536
535 537
535 538
536 533
536 534
536 535
536 537
536 538
537 535
537 536
537 538
537 539
537 540
538 535
538 536
538 537
538 539
538 540
538 541
539 537
539 538
539 540
539 541
539 542
540 537
540 538
540 539
540 541
540 542
540 543
541 538
541 539
541 540
541 542
541 543
541 544
542 539
542 540
542 541
542 543
542 544
542 545
543 540
543 541
543 542
543 544
543 545
543 546
544 541
544 542
544 543
544 545
544 546
544 547
545 542
545 543
545 544
545 546
545 547
545 548
546 543
546 544
546 545
546 547
546 548
547 544
547 545
547 546
547 548
548 545
548 546
548 547
